# Ef = 0eV. Temp = 300K. Angle phi = 0degrees. Angle theta = 0degrees.
0.000514684 4.20794e-25
0.00102937 9.01929e-25
0.00154405 1.44101e-24
0.00205874 2.03375e-24
0.00257342 2.6748e-24
0.0030881 3.35866e-24
0.00360279 4.08081e-24
0.00411747 4.83896e-24
0.00463215 5.6343e-24
0.00514684 6.47217e-24
0.00566152 7.36159e-24
0.00617621 8.3134e-24
0.00669089 9.33725e-24
0.00720557 1.04377e-23
0.00772026 1.16093e-23
0.00823494 1.28317e-23
0.00874963 1.40646e-23
0.00926431 1.52466e-23
0.00977899 1.63001e-23
0.0102937 1.71429e-23
0.0108084 1.77064e-23
0.011323 1.79512e-23
0.0118377 1.78767e-23
0.0123524 1.75176e-23
0.0128671 1.69324e-23
0.0133818 1.61885e-23
0.0138965 1.53498e-23
0.0144111 1.44697e-23
0.0149258 1.35879e-23
0.0154405 1.2732e-23
0.0159552 1.19189e-23
0.0164699 1.11578e-23
0.0169846 1.04524e-23
0.0174993 9.80311e-24
0.0180139 9.20779e-24
0.0185286 8.66325e-24
0.0190433 8.16569e-24
0.019558 7.71108e-24
0.0200727 7.29546e-24
0.0205874 6.91509e-24
0.021102 6.56648e-24
0.0216167 6.24645e-24
0.0221314 5.95213e-24
0.0226461 5.68094e-24
0.0231608 5.43059e-24
0.0236755 5.19901e-24
0.0241901 4.98438e-24
0.0247048 4.78508e-24
0.0252195 4.59966e-24
0.0257342 4.42684e-24
0.0262489 4.26548e-24
0.0267636 4.11455e-24
0.0272782 3.97314e-24
0.0277929 3.84044e-24
0.0283076 3.71571e-24
0.0288223 3.5983e-24
0.029337 3.48762e-24
0.0298517 3.38314e-24
0.0303663 3.28437e-24
0.030881 3.19088e-24
0.0313957 3.10228e-24
0.0319104 3.01822e-24
0.0324251 2.93836e-24
0.0329398 2.86242e-24
0.0334545 2.79012e-24
0.0339691 2.72122e-24
0.0344838 2.65549e-24
0.0349985 2.59273e-24
0.0355132 2.53275e-24
0.0360279 2.47537e-24
0.0365426 2.42043e-24
0.0370572 2.36778e-24
0.0375719 2.3173e-24
0.0380866 2.26884e-24
0.0386013 2.2223e-24
0.039116 2.17757e-24
0.0396307 2.13455e-24
0.0401453 2.09314e-24
0.04066 2.05326e-24
0.0411747 2.01482e-24
0.0416894 1.97775e-24
0.0422041 1.94199e-24
0.0427188 1.90745e-24
0.0432334 1.8741e-24
0.0437481 1.84185e-24
0.0442628 1.81067e-24
0.0447775 1.78051e-24
0.0452922 1.7513e-24
0.0458069 1.72302e-24
0.0463215 1.69561e-24
0.0468362 1.66904e-24
0.0473509 1.64328e-24
0.0478656 1.61827e-24
0.0483803 1.59401e-24
0.048895 1.57044e-24
0.0494096 1.54755e-24
0.0499243 1.5253e-24
0.050439 1.50367e-24
0.0509537 1.48263e-24
0.0514684 1.46216e-24
0.0519831 1.44224e-24
0.0524978 1.42284e-24
0.0530124 1.40395e-24
0.0535271 1.38555e-24
0.0540418 1.36761e-24
0.0545565 1.35013e-24
0.0550712 1.33307e-24
0.0555859 1.31644e-24
0.0561005 1.30021e-24
0.0566152 1.28437e-24
0.0571299 1.26891e-24
0.0576446 1.2538e-24
0.0581593 1.23905e-24
0.058674 1.22464e-24
0.0591886 1.21055e-24
0.0597033 1.19678e-24
0.060218 1.18331e-24
0.0607327 1.17014e-24
0.0612474 1.15725e-24
0.0617621 1.14465e-24
0.0622767 1.13231e-24
0.0627914 1.12023e-24
0.0633061 1.1084e-24
0.0638208 1.09681e-24
0.0643355 1.08547e-24
0.0648502 1.07435e-24
0.0653648 1.06345e-24
0.0658795 1.05278e-24
0.0663942 1.04231e-24
0.0669089 1.03204e-24
0.0674236 1.02197e-24
0.0679383 1.0121e-24
0.068453 1.00241e-24
0.0689676 9.92907e-25
0.0694823 9.83578e-25
0.069997 9.7442e-25
0.0705117 9.6543e-25
0.0710264 9.56603e-25
0.0715411 9.47934e-25
0.0720557 9.39419e-25
0.0725704 9.31055e-25
0.0730851 9.22836e-25
0.0735998 9.14761e-25
0.0741145 9.06824e-25
0.0746292 8.99022e-25
0.0751438 8.91352e-25
0.0756585 8.83811e-25
0.0761732 8.76395e-25
0.0766879 8.69102e-25
0.0772026 8.61928e-25
0.0777173 8.5487e-25
0.0782319 8.47926e-25
0.0787466 8.41093e-25
0.0792613 8.34369e-25
0.079776 8.2775e-25
0.0802907 8.21235e-25
0.0808054 8.1482e-25
0.08132 8.08505e-25
0.0818347 8.02285e-25
0.0823494 7.9616e-25
0.0828641 7.90127e-25
0.0833788 7.84185e-25
0.0838935 7.7833e-25
0.0844082 7.72561e-25
0.0849228 7.66877e-25
0.0854375 7.61275e-25
0.0859522 7.55754e-25
0.0864669 7.50312e-25
0.0869816 7.44947e-25
0.0874963 7.39658e-25
0.0880109 7.34443e-25
0.0885256 7.293e-25
0.0890403 7.24228e-25
0.089555 7.19227e-25
0.0900697 7.14293e-25
0.0905844 7.09426e-25
0.091099 7.04625e-25
0.0916137 6.99887e-25
0.0921284 6.95213e-25
0.0926431 6.906e-25
0.0931578 6.86048e-25
0.0936725 6.81555e-25
0.0941871 6.7712e-25
0.0947018 6.72742e-25
0.0952165 6.6842e-25
0.0957312 6.64153e-25
0.0962459 6.5994e-25
0.0967606 6.5578e-25
0.0972752 6.51671e-25
0.0977899 6.47614e-25
0.0983046 6.43606e-25
0.0988193 6.39647e-25
0.099334 6.35737e-25
0.0998487 6.31874e-25
0.100363 6.28057e-25
0.100878 6.24286e-25
0.101393 6.20559e-25
0.101907 6.16877e-25
0.102422 6.13238e-25
0.102937 6.09641e-25
0.103451 6.06086e-25
0.103966 6.02572e-25
0.104481 5.99099e-25
0.104996 5.95665e-25
0.10551 5.9227e-25
0.106025 5.88913e-25
0.10654 5.85594e-25
0.107054 5.82312e-25
0.107569 5.79067e-25
0.108084 5.75857e-25
0.108598 5.72682e-25
0.109113 5.69543e-25
0.109628 5.66437e-25
0.110142 5.63365e-25
0.110657 5.60326e-25
0.111172 5.57319e-25
0.111686 5.54344e-25
0.112201 5.51401e-25
0.112716 5.48489e-25
0.11323 5.45607e-25
0.113745 5.42755e-25
0.11426 5.39933e-25
0.114774 5.37139e-25
0.115289 5.34375e-25
0.115804 5.31638e-25
0.116319 5.2893e-25
0.116833 5.26249e-25
0.117348 5.23594e-25
0.117863 5.20967e-25
0.118377 5.18365e-25
0.118892 5.15789e-25
0.119407 5.13239e-25
0.119921 5.10713e-25
0.120436 5.08213e-25
0.120951 5.05736e-25
0.121465 5.03284e-25
0.12198 5.00855e-25
0.122495 4.98449e-25
0.123009 4.96066e-25
0.123524 4.93706e-25
0.124039 4.91368e-25
0.124553 4.89052e-25
0.125068 4.86758e-25
0.125583 4.84485e-25
0.126098 4.82233e-25
0.126612 4.80002e-25
0.127127 4.77791e-25
0.127642 4.75601e-25
0.128156 4.7343e-25
0.128671 4.71279e-25
0.129186 4.69148e-25
0.1297 4.67036e-25
0.130215 4.64942e-25
0.13073 4.62867e-25
0.131244 4.60811e-25
0.131759 4.58773e-25
0.132274 4.56752e-25
0.132788 4.5475e-25
0.133303 4.52764e-25
0.133818 4.50796e-25
0.134332 4.48845e-25
0.134847 4.46911e-25
0.135362 4.44993e-25
0.135877 4.43092e-25
0.136391 4.41206e-25
0.136906 4.39337e-25
0.137421 4.37483e-25
0.137935 4.35645e-25
0.13845 4.33823e-25
0.138965 4.32015e-25
0.139479 4.30222e-25
0.139994 4.28445e-25
0.140509 4.26681e-25
0.141023 4.24932e-25
0.141538 4.23198e-25
0.142053 4.21477e-25
0.142567 4.19771e-25
0.143082 4.18078e-25
0.143597 4.16398e-25
0.144111 4.14732e-25
0.144626 4.1308e-25
0.145141 4.1144e-25
0.145656 4.09814e-25
0.14617 4.082e-25
0.146685 4.06598e-25
0.1472 4.0501e-25
0.147714 4.03433e-25
0.148229 4.01869e-25
0.148744 4.00317e-25
0.149258 3.98776e-25
0.149773 3.97248e-25
0.150288 3.95731e-25
0.150802 3.94226e-25
0.151317 3.92732e-25
0.151832 3.91249e-25
0.152346 3.89778e-25
0.152861 3.88317e-25
0.153376 3.86867e-25
0.15389 3.85428e-25
0.154405 3.84e-25
0.15492 3.82582e-25
0.155435 3.81175e-25
0.155949 3.79778e-25
0.156464 3.78391e-25
0.156979 3.77014e-25
0.157493 3.75648e-25
0.158008 3.74291e-25
0.158523 3.72943e-25
0.159037 3.71606e-25
0.159552 3.70278e-25
0.160067 3.68959e-25
0.160581 3.6765e-25
0.161096 3.6635e-25
0.161611 3.65059e-25
0.162125 3.63777e-25
0.16264 3.62504e-25
0.163155 3.6124e-25
0.163669 3.59985e-25
0.164184 3.58738e-25
0.164699 3.575e-25
0.165214 3.56271e-25
0.165728 3.5505e-25
0.166243 3.53837e-25
0.166758 3.52632e-25
0.167272 3.51436e-25
0.167787 3.50248e-25
0.168302 3.49068e-25
0.168816 3.47895e-25
0.169331 3.46731e-25
0.169846 3.45574e-25
0.17036 3.44425e-25
0.170875 3.43283e-25
0.17139 3.42149e-25
0.171904 3.41023e-25
0.172419 3.39904e-25
0.172934 3.38792e-25
0.173448 3.37687e-25
0.173963 3.3659e-25
0.174478 3.35499e-25
0.174993 3.34416e-25
0.175507 3.3334e-25
0.176022 3.3227e-25
0.176537 3.31208e-25
0.177051 3.30152e-25
0.177566 3.29103e-25
0.178081 3.2806e-25
0.178595 3.27024e-25
0.17911 3.25995e-25
0.179625 3.24972e-25
0.180139 3.23955e-25
0.180654 3.22945e-25
0.181169 3.21941e-25
0.181683 3.20943e-25
0.182198 3.19952e-25
0.182713 3.18966e-25
0.183227 3.17987e-25
0.183742 3.17013e-25
0.184257 3.16046e-25
0.184772 3.15084e-25
0.185286 3.14128e-25
0.185801 3.13178e-25
0.186316 3.12234e-25
0.18683 3.11295e-25
0.187345 3.10362e-25
0.18786 3.09435e-25
0.188374 3.08513e-25
0.188889 3.07596e-25
0.189404 3.06685e-25
0.189918 3.05779e-25
0.190433 3.04879e-25
0.190948 3.03984e-25
0.191462 3.03094e-25
0.191977 3.02209e-25
0.192492 3.0133e-25
0.193006 3.00455e-25
0.193521 2.99586e-25
0.194036 2.98721e-25
0.19455 2.97862e-25
0.195065 2.97008e-25
0.19558 2.96158e-25
0.196095 2.95313e-25
0.196609 2.94473e-25
0.197124 2.93638e-25
0.197639 2.92807e-25
0.198153 2.91982e-25
0.198668 2.9116e-25
0.199183 2.90344e-25
0.199697 2.89532e-25
0.200212 2.88724e-25
0.200727 2.87921e-25
0.201241 2.87123e-25
0.201756 2.86329e-25
0.202271 2.85539e-25
0.202785 2.84753e-25
0.2033 2.83972e-25
0.203815 2.83195e-25
0.204329 2.82423e-25
0.204844 2.81654e-25
0.205359 2.8089e-25
0.205874 2.8013e-25
0.206388 2.79374e-25
0.206903 2.78622e-25
0.207418 2.77874e-25
0.207932 2.7713e-25
0.208447 2.7639e-25
0.208962 2.75654e-25
0.209476 2.74922e-25
0.209991 2.74194e-25
0.210506 2.73469e-25
0.21102 2.72749e-25
0.211535 2.72032e-25
0.21205 2.71319e-25
0.212564 2.7061e-25
0.213079 2.69904e-25
0.213594 2.69202e-25
0.214108 2.68504e-25
0.214623 2.67809e-25
0.215138 2.67118e-25
0.215653 2.6643e-25
0.216167 2.65746e-25
0.216682 2.65066e-25
0.217197 2.64389e-25
0.217711 2.63715e-25
0.218226 2.63045e-25
0.218741 2.62378e-25
0.219255 2.61714e-25
0.21977 2.61054e-25
0.220285 2.60397e-25
0.220799 2.59744e-25
0.221314 2.59094e-25
0.221829 2.58447e-25
0.222343 2.57803e-25
0.222858 2.57162e-25
0.223373 2.56525e-25
0.223887 2.55891e-25
0.224402 2.5526e-25
0.224917 2.54632e-25
0.225432 2.54007e-25
0.225946 2.53385e-25
0.226461 2.52766e-25
0.226976 2.5215e-25
0.22749 2.51537e-25
0.228005 2.50927e-25
0.22852 2.5032e-25
0.229034 2.49716e-25
0.229549 2.49115e-25
0.230064 2.48517e-25
0.230578 2.47922e-25
0.231093 2.47329e-25
0.231608 2.46739e-25
0.232122 2.46153e-25
0.232637 2.45568e-25
0.233152 2.44987e-25
0.233666 2.44409e-25
0.234181 2.43833e-25
0.234696 2.43259e-25
0.235211 2.42689e-25
0.235725 2.42121e-25
0.23624 2.41556e-25
0.236755 2.40993e-25
0.237269 2.40434e-25
0.237784 2.39876e-25
0.238299 2.39321e-25
0.238813 2.38769e-25
0.239328 2.3822e-25
0.239843 2.37672e-25
0.240357 2.37128e-25
0.240872 2.36586e-25
0.241387 2.36046e-25
0.241901 2.35509e-25
0.242416 2.34974e-25
0.242931 2.34442e-25
0.243445 2.33912e-25
0.24396 2.33384e-25
0.244475 2.32859e-25
0.24499 2.32336e-25
0.245504 2.31816e-25
0.246019 2.31297e-25
0.246534 2.30781e-25
0.247048 2.30268e-25
0.247563 2.29757e-25
0.248078 2.29248e-25
0.248592 2.28741e-25
0.249107 2.28236e-25
0.249622 2.27734e-25
0.250136 2.27234e-25
0.250651 2.26736e-25
0.251166 2.2624e-25
0.25168 2.25747e-25
0.252195 2.25255e-25
0.25271 2.24766e-25
0.253224 2.24279e-25
0.253739 2.23793e-25
0.254254 2.2331e-25
0.254769 2.2283e-25
0.255283 2.22351e-25
0.255798 2.21874e-25
0.256313 2.21399e-25
0.256827 2.20926e-25
0.257342 2.20456e-25
0.257857 2.19987e-25
0.258371 2.1952e-25
0.258886 2.19055e-25
0.259401 2.18593e-25
0.259915 2.18132e-25
0.26043 2.17673e-25
0.260945 2.17216e-25
0.261459 2.16761e-25
0.261974 2.16308e-25
0.262489 2.15856e-25
0.263003 2.15407e-25
0.263518 2.14959e-25
0.264033 2.14514e-25
0.264547 2.1407e-25
0.265062 2.13628e-25
0.265577 2.13188e-25
0.266092 2.12749e-25
0.266606 2.12313e-25
0.267121 2.11878e-25
0.267636 2.11445e-25
0.26815 2.11014e-25
0.268665 2.10584e-25
0.26918 2.10156e-25
0.269694 2.0973e-25
0.270209 2.09306e-25
0.270724 2.08884e-25
0.271238 2.08463e-25
0.271753 2.08043e-25
0.272268 2.07626e-25
0.272782 2.0721e-25
0.273297 2.06796e-25
0.273812 2.06383e-25
0.274326 2.05972e-25
0.274841 2.05563e-25
0.275356 2.05156e-25
0.275871 2.0475e-25
0.276385 2.04345e-25
0.2769 2.03942e-25
0.277415 2.03541e-25
0.277929 2.03141e-25
0.278444 2.02743e-25
0.278959 2.02347e-25
0.279473 2.01952e-25
0.279988 2.01558e-25
0.280503 2.01166e-25
0.281017 2.00776e-25
0.281532 2.00387e-25
0.282047 2e-25
0.282561 1.99614e-25
0.283076 1.99229e-25
0.283591 1.98846e-25
0.284105 1.98465e-25
0.28462 1.98085e-25
0.285135 1.97706e-25
0.28565 1.97329e-25
0.286164 1.96954e-25
0.286679 1.96579e-25
0.287194 1.96206e-25
0.287708 1.95835e-25
0.288223 1.95465e-25
0.288738 1.95096e-25
0.289252 1.94729e-25
0.289767 1.94363e-25
0.290282 1.93999e-25
0.290796 1.93636e-25
0.291311 1.93274e-25
0.291826 1.92913e-25
0.29234 1.92554e-25
0.292855 1.92197e-25
0.29337 1.9184e-25
0.293884 1.91485e-25
0.294399 1.91131e-25
0.294914 1.90779e-25
0.295429 1.90428e-25
0.295943 1.90078e-25
0.296458 1.89729e-25
0.296973 1.89382e-25
0.297487 1.89036e-25
0.298002 1.88691e-25
0.298517 1.88347e-25
0.299031 1.88005e-25
0.299546 1.87664e-25
0.300061 1.87324e-25
0.300575 1.86985e-25
0.30109 1.86648e-25
0.301605 1.86312e-25
0.302119 1.85977e-25
0.302634 1.85643e-25
0.303149 1.85311e-25
0.303663 1.84979e-25
0.304178 1.84649e-25
0.304693 1.8432e-25
0.305208 1.83992e-25
0.305722 1.83665e-25
0.306237 1.8334e-25
0.306752 1.83016e-25
0.307266 1.82692e-25
0.307781 1.8237e-25
0.308296 1.82049e-25
0.30881 1.81729e-25
0.309325 1.81411e-25
0.30984 1.81093e-25
0.310354 1.80777e-25
0.310869 1.80461e-25
0.311384 1.80147e-25
0.311898 1.79834e-25
0.312413 1.79522e-25
0.312928 1.79211e-25
0.313442 1.78901e-25
0.313957 1.78592e-25
0.314472 1.78284e-25
0.314987 1.77977e-25
0.315501 1.77672e-25
0.316016 1.77367e-25
0.316531 1.77063e-25
0.317045 1.76761e-25
0.31756 1.76459e-25
0.318075 1.76159e-25
0.318589 1.75859e-25
0.319104 1.75561e-25
0.319619 1.75263e-25
0.320133 1.74967e-25
0.320648 1.74671e-25
0.321163 1.74377e-25
0.321677 1.74083e-25
0.322192 1.73791e-25
0.322707 1.73499e-25
0.323221 1.73209e-25
0.323736 1.72919e-25
0.324251 1.72631e-25
0.324766 1.72343e-25
0.32528 1.72056e-25
0.325795 1.71771e-25
0.32631 1.71486e-25
0.326824 1.71202e-25
0.327339 1.70919e-25
0.327854 1.70637e-25
0.328368 1.70356e-25
0.328883 1.70076e-25
0.329398 1.69797e-25
0.329912 1.69518e-25
0.330427 1.69241e-25
0.330942 1.68965e-25
0.331456 1.68689e-25
0.331971 1.68414e-25
0.332486 1.68141e-25
0.333 1.67868e-25
0.333515 1.67596e-25
0.33403 1.67325e-25
0.334545 1.67054e-25
0.335059 1.66785e-25
0.335574 1.66516e-25
0.336089 1.66249e-25
0.336603 1.65982e-25
0.337118 1.65716e-25
0.337633 1.65451e-25
0.338147 1.65187e-25
0.338662 1.64923e-25
0.339177 1.64661e-25
0.339691 1.64399e-25
0.340206 1.64138e-25
0.340721 1.63878e-25
0.341235 1.63619e-25
0.34175 1.6336e-25
0.342265 1.63103e-25
0.342779 1.62846e-25
0.343294 1.6259e-25
0.343809 1.62335e-25
0.344323 1.62081e-25
0.344838 1.61827e-25
0.345353 1.61574e-25
0.345868 1.61322e-25
0.346382 1.61071e-25
0.346897 1.6082e-25
0.347412 1.60571e-25
0.347926 1.60322e-25
0.348441 1.60074e-25
0.348956 1.59826e-25
0.34947 1.5958e-25
0.349985 1.59334e-25
0.3505 1.59089e-25
0.351014 1.58845e-25
0.351529 1.58601e-25
0.352044 1.58358e-25
0.352558 1.58116e-25
0.353073 1.57875e-25
0.353588 1.57634e-25
0.354102 1.57394e-25
0.354617 1.57155e-25
0.355132 1.56917e-25
0.355647 1.56679e-25
0.356161 1.56442e-25
0.356676 1.56206e-25
0.357191 1.5597e-25
0.357705 1.55735e-25
0.35822 1.55501e-25
0.358735 1.55268e-25
0.359249 1.55035e-25
0.359764 1.54803e-25
0.360279 1.54571e-25
0.360793 1.54341e-25
0.361308 1.54111e-25
0.361823 1.53881e-25
0.362337 1.53653e-25
0.362852 1.53425e-25
0.363367 1.53198e-25
0.363881 1.52971e-25
0.364396 1.52745e-25
0.364911 1.5252e-25
0.365426 1.52295e-25
0.36594 1.52071e-25
0.366455 1.51848e-25
0.36697 1.51625e-25
0.367484 1.51403e-25
0.367999 1.51182e-25
0.368514 1.50961e-25
0.369028 1.50741e-25
0.369543 1.50522e-25
0.370058 1.50303e-25
0.370572 1.50085e-25
0.371087 1.49868e-25
0.371602 1.49651e-25
0.372116 1.49435e-25
0.372631 1.49219e-25
0.373146 1.49004e-25
0.37366 1.4879e-25
0.374175 1.48576e-25
0.37469 1.48363e-25
0.375205 1.4815e-25
0.375719 1.47938e-25
0.376234 1.47727e-25
0.376749 1.47516e-25
0.377263 1.47306e-25
0.377778 1.47097e-25
0.378293 1.46888e-25
0.378807 1.46679e-25
0.379322 1.46472e-25
0.379837 1.46265e-25
0.380351 1.46058e-25
0.380866 1.45852e-25
0.381381 1.45647e-25
0.381895 1.45442e-25
0.38241 1.45238e-25
0.382925 1.45034e-25
0.383439 1.44831e-25
0.383954 1.44628e-25
0.384469 1.44426e-25
0.384984 1.44225e-25
0.385498 1.44024e-25
0.386013 1.43824e-25
0.386528 1.43624e-25
0.387042 1.43425e-25
0.387557 1.43226e-25
0.388072 1.43028e-25
0.388586 1.4283e-25
0.389101 1.42634e-25
0.389616 1.42437e-25
0.39013 1.42241e-25
0.390645 1.42046e-25
0.39116 1.41851e-25
0.391674 1.41657e-25
0.392189 1.41463e-25
0.392704 1.4127e-25
0.393218 1.41077e-25
0.393733 1.40885e-25
0.394248 1.40693e-25
0.394763 1.40502e-25
0.395277 1.40311e-25
0.395792 1.40121e-25
0.396307 1.39932e-25
0.396821 1.39743e-25
0.397336 1.39554e-25
0.397851 1.39366e-25
0.398365 1.39178e-25
0.39888 1.38991e-25
0.399395 1.38805e-25
0.399909 1.38619e-25
0.400424 1.38433e-25
0.400939 1.38248e-25
0.401453 1.38063e-25
0.401968 1.37879e-25
0.402483 1.37696e-25
0.402997 1.37513e-25
0.403512 1.3733e-25
0.404027 1.37148e-25
0.404542 1.36966e-25
0.405056 1.36785e-25
0.405571 1.36605e-25
0.406086 1.36424e-25
0.4066 1.36245e-25
0.407115 1.36065e-25
0.40763 1.35887e-25
0.408144 1.35708e-25
0.408659 1.3553e-25
0.409174 1.35353e-25
0.409688 1.35176e-25
0.410203 1.35e-25
0.410718 1.34824e-25
0.411232 1.34648e-25
0.411747 1.34473e-25
0.412262 1.34298e-25
0.412776 1.34124e-25
0.413291 1.3395e-25
0.413806 1.33777e-25
0.414321 1.33604e-25
0.414835 1.33432e-25
0.41535 1.3326e-25
0.415865 1.33088e-25
0.416379 1.32917e-25
0.416894 1.32747e-25
0.417409 1.32577e-25
0.417923 1.32407e-25
0.418438 1.32238e-25
0.418953 1.32069e-25
0.419467 1.319e-25
0.419982 1.31732e-25
0.420497 1.31565e-25
0.421011 1.31397e-25
0.421526 1.31231e-25
0.422041 1.31064e-25
0.422555 1.30899e-25
0.42307 1.30733e-25
0.423585 1.30568e-25
0.424099 1.30403e-25
0.424614 1.30239e-25
0.425129 1.30075e-25
0.425644 1.29912e-25
0.426158 1.29749e-25
0.426673 1.29586e-25
0.427188 1.29424e-25
0.427702 1.29262e-25
0.428217 1.29101e-25
0.428732 1.2894e-25
0.429246 1.28779e-25
0.429761 1.28619e-25
0.430276 1.28459e-25
0.43079 1.283e-25
0.431305 1.28141e-25
0.43182 1.27983e-25
0.432334 1.27824e-25
0.432849 1.27667e-25
0.433364 1.27509e-25
0.433878 1.27352e-25
0.434393 1.27195e-25
0.434908 1.27039e-25
0.435423 1.26883e-25
0.435937 1.26728e-25
0.436452 1.26573e-25
0.436967 1.26418e-25
0.437481 1.26264e-25
0.437996 1.2611e-25
0.438511 1.25956e-25
0.439025 1.25803e-25
0.43954 1.2565e-25
0.440055 1.25497e-25
0.440569 1.25345e-25
0.441084 1.25194e-25
0.441599 1.25042e-25
0.442113 1.24891e-25
0.442628 1.24741e-25
0.443143 1.2459e-25
0.443657 1.2444e-25
0.444172 1.24291e-25
0.444687 1.24142e-25
0.445202 1.23993e-25
0.445716 1.23844e-25
0.446231 1.23696e-25
0.446746 1.23548e-25
0.44726 1.23401e-25
0.447775 1.23254e-25
0.44829 1.23107e-25
0.448804 1.22961e-25
0.449319 1.22815e-25
0.449834 1.22669e-25
0.450348 1.22524e-25
0.450863 1.22379e-25
0.451378 1.22234e-25
0.451892 1.2209e-25
0.452407 1.21946e-25
0.452922 1.21802e-25
0.453436 1.21659e-25
0.453951 1.21516e-25
0.454466 1.21373e-25
0.454981 1.21231e-25
0.455495 1.21089e-25
0.45601 1.20947e-25
0.456525 1.20806e-25
0.457039 1.20665e-25
0.457554 1.20524e-25
0.458069 1.20384e-25
0.458583 1.20244e-25
0.459098 1.20104e-25
0.459613 1.19965e-25
0.460127 1.19826e-25
0.460642 1.19687e-25
0.461157 1.19549e-25
0.461671 1.19411e-25
0.462186 1.19273e-25
0.462701 1.19136e-25
0.463215 1.18999e-25
0.46373 1.18862e-25
0.464245 1.18725e-25
0.46476 1.18589e-25
0.465274 1.18453e-25
0.465789 1.18318e-25
0.466304 1.18183e-25
0.466818 1.18048e-25
0.467333 1.17913e-25
0.467848 1.17779e-25
0.468362 1.17645e-25
0.468877 1.17511e-25
0.469392 1.17378e-25
0.469906 1.17245e-25
0.470421 1.17112e-25
0.470936 1.16979e-25
0.47145 1.16847e-25
0.471965 1.16715e-25
0.47248 1.16584e-25
0.472994 1.16452e-25
0.473509 1.16321e-25
0.474024 1.16191e-25
0.474539 1.1606e-25
0.475053 1.1593e-25
0.475568 1.158e-25
0.476083 1.15671e-25
0.476597 1.15542e-25
0.477112 1.15413e-25
0.477627 1.15284e-25
0.478141 1.15156e-25
0.478656 1.15028e-25
0.479171 1.149e-25
0.479685 1.14772e-25
0.4802 1.14645e-25
0.480715 1.14518e-25
0.481229 1.14391e-25
0.481744 1.14265e-25
0.482259 1.14139e-25
0.482773 1.14013e-25
0.483288 1.13887e-25
0.483803 1.13762e-25
0.484318 1.13637e-25
0.484832 1.13512e-25
0.485347 1.13388e-25
0.485862 1.13264e-25
0.486376 1.1314e-25
0.486891 1.13016e-25
0.487406 1.12893e-25
0.48792 1.1277e-25
0.488435 1.12647e-25
